TITLE	WF_OEP24A_DPC_0,1_16,8uM_frac2_180522
DATA TYPE	
ORIGIN	JASCO
OWNER	
DATE	22/05/18
TIME	16:31:04
SPECTROMETER/DATA SYSTEM	
LOCALE	8192
RESOLUTION	
DELTAX	-0.1
XUNITS	NANOMETERS
YUNITS	CD [mdeg]
Y2UNITS	HT [V]
Y3UNITS	ABSORBANCE
FIRSTX	  260.0000
LASTX	  190.0000
NPOINTS	     701
FIRSTY	    -0.39924
MAXY	     8.30392
MINY	   -49.35195
XYDATA
260.0000	-0.399241	280.341	1.0571
259.9000	-0.341071	280.385	1.0576
259.8000	-0.373162	280.433	1.05813
259.7000	-0.360893	280.462	1.05845
259.6000	-0.348513	280.493	1.0588
259.5000	-0.362024	280.521	1.05912
259.4000	-0.359826	280.546	1.05939
259.3000	-0.422066	280.582	1.0598
259.2000	-0.431239	280.612	1.06014
259.1000	-0.425209	280.649	1.06055
259.0000	-0.453544	280.674	1.06083
258.9000	-0.430256	280.706	1.06119
258.8000	-0.47001	280.739	1.06155
258.7000	-0.450525	280.773	1.06194
258.6000	-0.430369	280.806	1.0623
258.5000	-0.419035	280.834	1.06261
258.4000	-0.380961	280.877	1.0631
258.3000	-0.396097	280.906	1.06343
258.2000	-0.399186	280.931	1.0637
258.1000	-0.435325	280.956	1.06398
258.0000	-0.399861	280.973	1.06417
257.9000	-0.411578	280.995	1.06442
257.8000	-0.464509	281.012	1.06461
257.7000	-0.467687	281.047	1.065
257.6000	-0.432704	281.059	1.06513
257.5000	-0.446184	281.062	1.06516
257.4000	-0.445098	281.087	1.06545
257.3000	-0.411114	281.12	1.06581
257.2000	-0.46242	281.146	1.0661
257.1000	-0.438191	281.164	1.0663
257.0000	-0.424487	281.197	1.06667
256.9000	-0.434257	281.211	1.06683
256.8000	-0.458352	281.226	1.06699
256.7000	-0.475689	281.263	1.06741
256.6000	-0.477185	281.296	1.06777
256.5000	-0.481939	281.312	1.06795
256.4000	-0.515988	281.353	1.06842
256.3000	-0.488199	281.392	1.06885
256.2000	-0.519859	281.43	1.06927
256.1000	-0.516508	281.465	1.06966
256.0000	-0.494537	281.498	1.07003
255.9000	-0.508426	281.519	1.07026
255.8000	-0.506565	281.553	1.07065
255.7000	-0.534104	281.608	1.07126
255.6000	-0.517433	281.64	1.07161
255.5000	-0.512102	281.658	1.07182
255.4000	-0.527696	281.697	1.07225
255.3000	-0.532324	281.739	1.07272
255.2000	-0.577808	281.757	1.07291
255.1000	-0.579362	281.782	1.07319
255.0000	-0.634852	281.795	1.07334
254.9000	-0.656531	281.817	1.07359
254.8000	-0.670457	281.85	1.07395
254.7000	-0.661778	281.89	1.0744
254.6000	-0.690082	281.918	1.07471
254.5000	-0.667347	281.941	1.07497
254.4000	-0.609517	281.98	1.0754
254.3000	-0.652207	282.037	1.07603
254.2000	-0.648442	282.077	1.07649
254.1000	-0.634147	282.122	1.07698
254.0000	-0.594828	282.179	1.07762
253.9000	-0.601249	282.233	1.07822
253.8000	-0.647578	282.291	1.07886
253.7000	-0.627223	282.325	1.07925
253.6000	-0.63623	282.374	1.07979
253.5000	-0.630912	282.434	1.08046
253.4000	-0.628757	282.49	1.08108
253.3000	-0.606864	282.53	1.08152
253.2000	-0.596872	282.574	1.08202
253.1000	-0.62759	282.608	1.08239
253.0000	-0.611091	282.638	1.08272
252.9000	-0.614605	282.665	1.08303
252.8000	-0.597253	282.71	1.08352
252.7000	-0.5867	282.738	1.08383
252.6000	-0.572424	282.779	1.08429
252.5000	-0.533463	282.823	1.08478
252.4000	-0.539214	282.854	1.08513
252.3000	-0.547172	282.91	1.08574
252.2000	-0.588368	282.95	1.0862
252.1000	-0.558171	283.016	1.08693
252.0000	-0.64718	283.058	1.08739
251.9000	-0.660449	283.102	1.08788
251.8000	-0.646186	283.149	1.0884
251.7000	-0.686841	283.192	1.08888
251.6000	-0.749173	283.233	1.08933
251.5000	-0.732951	283.278	1.08983
251.4000	-0.689817	283.317	1.09026
251.3000	-0.71054	283.365	1.0908
251.2000	-0.745766	283.4	1.09118
251.1000	-0.690251	283.444	1.09167
251.0000	-0.679202	283.482	1.0921
250.9000	-0.735174	283.511	1.09242
250.8000	-0.726634	283.536	1.09269
250.7000	-0.809538	283.572	1.09309
250.6000	-0.847359	283.605	1.09346
250.5000	-0.873921	283.633	1.09377
250.4000	-0.876	283.659	1.09406
250.3000	-0.876503	283.69	1.0944
250.2000	-0.934525	283.72	1.09473
250.1000	-0.960991	283.762	1.0952
250.0000	-0.975355	283.801	1.09564
249.9000	-0.891429	283.864	1.09633
249.8000	-0.878217	283.912	1.09686
249.7000	-0.819027	283.958	1.09737
249.6000	-0.829541	284.013	1.09798
249.5000	-0.882124	284.057	1.09847
249.4000	-0.906257	284.102	1.09896
249.3000	-0.894404	284.141	1.0994
249.2000	-0.935789	284.199	1.10004
249.1000	-0.971402	284.253	1.10064
249.0000	-1.00428	284.314	1.10131
248.9000	-1.05923	284.375	1.10198
248.8000	-1.10128	284.439	1.1027
248.7000	-1.12429	284.496	1.10332
248.6000	-1.14233	284.547	1.10388
248.5000	-1.13401	284.626	1.10476
248.4000	-1.12546	284.681	1.10537
248.3000	-1.17064	284.714	1.10573
248.2000	-1.16238	284.745	1.10608
248.1000	-1.17303	284.778	1.10644
248.0000	-1.19717	284.826	1.10697
247.9000	-1.18489	284.88	1.10756
247.8000	-1.19364	284.94	1.10823
247.7000	-1.20436	284.988	1.10876
247.6000	-1.21095	285.038	1.10931
247.5000	-1.16308	285.112	1.11012
247.4000	-1.20763	285.224	1.11136
247.3000	-1.28429	285.312	1.11233
247.2000	-1.33968	285.386	1.11315
247.1000	-1.35158	285.448	1.11384
247.0000	-1.32024	285.517	1.11459
246.9000	-1.40529	285.602	1.11553
246.8000	-1.40222	285.682	1.11641
246.7000	-1.39166	285.781	1.1175
246.6000	-1.39937	285.848	1.11824
246.5000	-1.34809	285.913	1.11895
246.4000	-1.3051	285.971	1.1196
246.3000	-1.32722	286.049	1.12045
246.2000	-1.37787	286.111	1.12113
246.1000	-1.38675	286.194	1.12205
246.0000	-1.48514	286.256	1.12273
245.9000	-1.5031	286.324	1.12348
245.8000	-1.49094	286.399	1.12431
245.7000	-1.54477	286.453	1.1249
245.6000	-1.66931	286.52	1.12564
245.5000	-1.67076	286.59	1.12641
245.4000	-1.69161	286.659	1.12716
245.3000	-1.70577	286.727	1.12791
245.2000	-1.70873	286.799	1.1287
245.1000	-1.75861	286.891	1.12971
245.0000	-1.83518	286.974	1.13062
244.9000	-1.86889	287.056	1.13152
244.8000	-1.83503	287.157	1.13263
244.7000	-1.93042	287.237	1.1335
244.6000	-1.99216	287.347	1.13471
244.5000	-2.03067	287.457	1.13592
244.4000	-2.08822	287.556	1.13701
244.3000	-2.09496	287.639	1.13791
244.2000	-2.09671	287.735	1.13897
244.1000	-2.15762	287.829	1.14
244.0000	-2.25616	287.929	1.14109
243.9000	-2.29183	288.034	1.14223
243.8000	-2.29729	288.129	1.14328
243.7000	-2.35352	288.217	1.14424
243.6000	-2.42839	288.319	1.14535
243.5000	-2.50718	288.409	1.14634
243.4000	-2.5626	288.517	1.14752
243.3000	-2.58354	288.631	1.14876
243.2000	-2.64107	288.786	1.15046
243.1000	-2.6559	288.915	1.15187
243.0000	-2.74434	289.041	1.15324
242.9000	-2.76487	289.138	1.1543
242.8000	-2.77187	289.27	1.15574
242.7000	-2.87072	289.426	1.15743
242.6000	-2.89479	289.559	1.15889
242.5000	-2.98457	289.705	1.16047
242.4000	-3.05192	289.833	1.16187
242.3000	-3.13584	289.979	1.16346
242.2000	-3.19267	290.136	1.16517
242.1000	-3.22131	290.273	1.16666
242.0000	-3.37126	290.415	1.1682
241.9000	-3.36379	290.584	1.17003
241.8000	-3.4519	290.738	1.17171
241.7000	-3.54355	290.892	1.17338
241.6000	-3.59368	291.044	1.17504
241.5000	-3.65062	291.192	1.17664
241.4000	-3.72331	291.346	1.17831
241.3000	-3.82115	291.501	1.17999
241.2000	-3.86802	291.725	1.18241
241.1000	-3.96718	291.885	1.18414
241.0000	-4.06649	292.046	1.18589
240.9000	-4.21749	292.216	1.18772
240.8000	-4.31178	292.403	1.18975
240.7000	-4.38116	292.572	1.19158
240.6000	-4.40858	292.765	1.19366
240.5000	-4.49207	293.006	1.19625
240.4000	-4.60526	293.2	1.19835
240.3000	-4.68254	293.409	1.2006
240.2000	-4.7526	293.62	1.20288
240.1000	-4.73051	293.831	1.20515
240.0000	-4.77526	294.044	1.20743
239.9000	-4.90383	294.26	1.20976
239.8000	-5.01433	294.468	1.212
239.7000	-5.13209	294.622	1.21365
239.6000	-5.20305	294.829	1.21587
239.5000	-5.23594	295.033	1.21806
239.4000	-5.29586	295.25	1.22039
239.3000	-5.39989	295.469	1.22273
239.2000	-5.55141	295.749	1.22574
239.1000	-5.70654	295.988	1.22829
239.0000	-5.82062	296.233	1.23091
238.9000	-5.9565	296.487	1.23362
238.8000	-6.08249	296.756	1.2365
238.7000	-6.22817	297.032	1.23944
238.6000	-6.41161	297.306	1.24236
238.5000	-6.6274	297.648	1.24601
238.4000	-6.76768	297.916	1.24886
238.3000	-6.82739	298.193	1.25181
238.2000	-6.91798	298.469	1.25474
238.1000	-7.00871	298.757	1.2578
238.0000	-7.14327	299.043	1.26084
237.9000	-7.25993	299.329	1.26386
237.8000	-7.40997	299.607	1.2668
237.7000	-7.46222	299.913	1.27005
237.6000	-7.54714	300.214	1.27323
237.5000	-7.75624	300.517	1.27643
237.4000	-7.82386	300.823	1.27966
237.3000	-8.00705	301.125	1.28285
237.2000	-8.13559	301.431	1.28607
237.1000	-8.24044	301.741	1.28934
237.0000	-8.34674	302.002	1.29209
236.9000	-8.43992	302.33	1.29553
236.8000	-8.55257	302.66	1.299
236.7000	-8.68147	302.994	1.30251
236.6000	-8.84337	303.327	1.306
236.5000	-9.00929	303.678	1.30968
236.4000	-9.09804	304.027	1.31332
236.3000	-9.25542	304.381	1.31702
236.2000	-9.43597	304.74	1.32078
236.1000	-9.62852	305.103	1.32457
236.0000	-9.89695	305.496	1.32866
235.9000	-10.1209	305.883	1.33269
235.8000	-10.2516	306.266	1.33668
235.7000	-10.3697	306.675	1.34093
235.6000	-10.6324	307.181	1.34618
235.5000	-10.7696	307.602	1.35054
235.4000	-10.8725	308.015	1.35482
235.3000	-11.0618	308.45	1.35932
235.2000	-11.2399	308.864	1.3636
235.1000	-11.2574	309.284	1.36792
235.0000	-11.423	309.722	1.37244
234.9000	-11.5745	310.16	1.37696
234.8000	-11.6859	310.6	1.38148
234.7000	-11.9263	311.037	1.38597
234.6000	-12.1534	311.498	1.39069
234.5000	-12.3271	311.94	1.39523
234.4000	-12.515	312.399	1.39991
234.3000	-12.6762	312.873	1.40476
234.2000	-12.8111	313.232	1.40843
234.1000	-13.0254	313.721	1.41341
234.0000	-13.1956	314.211	1.4184
233.9000	-13.483	314.686	1.42324
233.8000	-13.6254	315.18	1.42826
233.7000	-13.8814	315.665	1.43318
233.6000	-14.0313	316.162	1.43821
233.5000	-14.2808	316.665	1.4433
233.4000	-14.5254	317.179	1.44849
233.3000	-14.7652	317.701	1.45376
233.2000	-15.0184	318.221	1.459
233.1000	-15.1832	318.762	1.46444
233.0000	-15.3433	319.305	1.4699
232.9000	-15.5603	320.003	1.4769
232.8000	-15.7303	320.551	1.48239
232.7000	-15.923	321.114	1.48802
232.6000	-16.1625	321.673	1.49361
232.5000	-16.4307	322.234	1.4992
232.4000	-16.5388	322.651	1.50335
232.3000	-16.7932	323.22	1.50901
232.2000	-17.068	323.788	1.51466
232.1000	-17.3398	324.368	1.5204
232.0000	-17.5695	324.966	1.52632
231.9000	-17.727	325.399	1.53061
231.8000	-17.8821	325.839	1.53496
231.7000	-18.0646	326.434	1.54083
231.6000	-18.228	326.876	1.54518
231.5000	-18.4156	327.322	1.54958
231.4000	-18.4993	327.777	1.55404
231.3000	-18.6109	328.212	1.55832
231.2000	-18.7758	328.679	1.5629
231.1000	-18.9876	329.269	1.56868
231.0000	-19.1614	329.732	1.57321
230.9000	-19.2818	330.195	1.57773
230.8000	-19.4515	330.803	1.58366
230.7000	-19.6221	331.396	1.58944
230.6000	-19.8621	332.018	1.59548
230.5000	-20.1258	332.637	1.6015
230.4000	-20.4407	333.253	1.60747
230.3000	-20.6445	333.864	1.61339
230.2000	-20.8284	334.48	1.61934
230.1000	-21.0857	335.073	1.62507
230.0000	-21.3188	335.683	1.63095
229.9000	-21.6646	336.301	1.6369
229.8000	-21.9071	336.915	1.64279
229.7000	-22.2637	337.503	1.64844
229.6000	-22.5817	338.132	1.65446
229.5000	-22.7924	338.772	1.66058
229.4000	-23.024	339.407	1.66664
229.3000	-23.2175	340.057	1.67284
229.2000	-23.5353	340.726	1.67921
229.1000	-23.7153	341.409	1.6857
229.0000	-24.0036	342.109	1.69234
228.9000	-24.094	342.63	1.69728
228.8000	-24.2837	343.325	1.70385
228.7000	-24.3665	344.011	1.71033
228.6000	-24.7158	344.705	1.71687
228.5000	-24.9754	345.22	1.72172
228.4000	-25.1973	345.913	1.72823
228.3000	-25.3976	346.588	1.73456
228.2000	-25.6995	347.253	1.7408
228.1000	-25.9614	347.918	1.74701
228.0000	-26.2701	348.583	1.75323
227.9000	-26.6458	349.258	1.75952
227.8000	-26.9616	349.922	1.7657
227.7000	-27.2243	350.593	1.77194
227.6000	-27.6192	351.427	1.77968
227.5000	-27.89	352.099	1.7859
227.4000	-28.1535	352.771	1.79211
227.3000	-28.4034	353.428	1.79817
227.2000	-28.5693	354.073	1.80412
227.1000	-28.6847	354.719	1.81006
227.0000	-28.9505	355.375	1.81609
226.9000	-29.2012	356.02	1.82201
226.8000	-29.4825	356.657	1.82785
226.7000	-29.6536	357.305	1.83377
226.6000	-29.8333	357.946	1.83963
226.5000	-30.0072	358.606	1.84565
226.4000	-30.2906	359.263	1.85163
226.3000	-30.6736	359.928	1.85768
226.2000	-30.9231	360.586	1.86365
226.1000	-31.0926	361.243	1.86961
226.0000	-31.3438	361.746	1.87416
225.9000	-31.6374	362.404	1.8801
225.8000	-32.0467	363.067	1.88609
225.7000	-32.3411	363.738	1.89213
225.6000	-32.6463	364.58	1.89971
225.5000	-32.9139	365.268	1.90588
225.4000	-33.1882	365.958	1.91208
225.3000	-33.5032	366.673	1.91847
225.2000	-33.7103	367.389	1.92487
225.1000	-34.0059	368.289	1.9329
225.0000	-34.2729	369.015	1.93936
224.9000	-34.4786	369.7	1.94545
224.8000	-34.8391	370.41	1.95175
224.7000	-35.0458	371.117	1.95802
224.6000	-35.1569	371.635	1.96261
224.5000	-35.3269	372.337	1.9688
224.4000	-35.4975	373.011	1.97475
224.3000	-35.5785	373.706	1.98088
224.2000	-35.8017	374.406	1.98704
224.1000	-36.092	375.113	1.99324
224.0000	-36.4798	375.842	1.99963
223.9000	-36.8431	376.57	2.00601
223.8000	-37.2799	377.295	2.01235
223.7000	-37.5553	378.035	2.01879
223.6000	-38.0107	378.779	2.02528
223.5000	-38.4084	379.535	2.03186
223.4000	-38.9513	380.301	2.0385
223.3000	-39.2327	381.061	2.04509
223.2000	-39.5273	381.814	2.05161
223.1000	-39.8083	382.569	2.05812
223.0000	-39.951	383.355	2.06491
222.9000	-40.2443	384.128	2.07156
222.8000	-40.2706	384.91	2.07828
222.7000	-40.4336	385.694	2.085
222.6000	-40.5057	386.472	2.09167
222.5000	-40.538	387.267	2.09847
222.4000	-40.9112	388.076	2.10538
222.3000	-41.1454	388.898	2.11238
222.2000	-41.2837	389.715	2.11933
222.1000	-41.3065	390.523	2.12619
222.0000	-41.715	391.349	2.13318
221.9000	-41.9032	392.189	2.14029
221.8000	-42.232	393.031	2.1474
221.7000	-42.5366	393.885	2.1546
221.6000	-42.7516	394.737	2.16177
221.5000	-43.2	395.6	2.16902
221.4000	-43.1856	396.465	2.17628
221.3000	-43.6056	397.349	2.18367
221.2000	-43.8664	398.226	2.19099
221.1000	-44.1397	399.11	2.19836
221.0000	-44.1983	400.015	2.2059
220.9000	-44.2564	400.918	2.2134
220.8000	-44.3409	401.84	2.22104
220.7000	-44.3338	402.772	2.22875
220.6000	-44.4567	403.727	2.23664
220.5000	-44.62	404.683	2.24452
220.4000	-44.6983	405.638	2.25237
220.3000	-44.7903	406.867	2.26245
220.2000	-44.9258	407.838	2.2704
220.1000	-45.1825	408.838	2.27857
220.0000	-45.4918	409.849	2.28682
219.9000	-45.7231	410.861	2.29506
219.8000	-45.679	411.884	2.30336
219.7000	-45.9969	412.917	2.31173
219.6000	-46.1778	414.24	2.32242
219.5000	-46.4613	415.304	2.33101
219.4000	-46.6553	416.122	2.33759
219.3000	-46.7571	417.216	2.34638
219.2000	-47.0033	418.268	2.35481
219.1000	-47.0476	419.382	2.36372
219.0000	-47.2581	420.488	2.37254
218.9000	-47.4692	421.602	2.38142
218.8000	-47.6405	422.737	2.39043
218.7000	-47.6329	423.869	2.39941
218.6000	-47.8173	425.017	2.40848
218.5000	-47.9381	426.17	2.41759
218.4000	-48.0494	427.365	2.42699
218.3000	-48.3295	428.548	2.43628
218.2000	-48.5666	429.757	2.44575
218.1000	-48.6638	430.985	2.45536
218.0000	-48.6182	432.854	2.46992
217.9000	-48.3994	434.133	2.47986
217.8000	-48.3608	435.753	2.49241
217.7000	-48.4039	437.76	2.5079
217.6000	-48.4487	439.482	2.52115
217.5000	-48.5867	440.882	2.53189
217.4000	-48.5292	442.673	2.54558
217.3000	-48.8299	444.486	2.5594
217.2000	-49.0534	445.951	2.57053
217.1000	-48.9891	447.433	2.58176
217.0000	-49.1676	448.934	2.59309
216.9000	-49.352	450.44	2.60444
216.8000	-49.1473	451.586	2.61305
216.7000	-49.0924	453.135	2.62466
216.6000	-48.825	454.686	2.63625
216.5000	-48.8751	456.267	2.64803
216.4000	-48.6995	457.873	2.65997
216.3000	-48.8458	459.514	2.67212
216.2000	-48.624	461.193	2.68452
216.1000	-48.5472	462.45	2.69378
216.0000	-48.4008	464.161	2.70635
215.9000	-48.471	465.899	2.71907
215.8000	-48.4974	467.682	2.73209
215.7000	-48.6802	469.504	2.74534
215.6000	-48.4451	471.351	2.75874
215.5000	-48.3665	473.229	2.77231
215.4000	-48.4921	474.659	2.78262
215.3000	-48.0864	476.574	2.79637
215.2000	-48.0648	478.535	2.81042
215.1000	-47.9643	480.538	2.8247
215.0000	-47.8812	482.56	2.83908
214.9000	-47.7989	484.607	2.85358
214.8000	-47.9547	486.694	2.86831
214.7000	-48.1587	488.83	2.88334
214.6000	-48.0974	491.001	2.89855
214.5000	-48.3966	493.199	2.91389
214.4000	-48.3286	496.029	2.93356
214.3000	-48.2788	498.318	2.9494
214.2000	-48.493	500.673	2.96564
214.1000	-48.4525	503.059	2.98201
214.0000	-48.1906	505.475	2.99854
213.9000	-48.0067	507.928	3.01524
213.8000	-48.1902	510.431	3.03221
213.7000	-48.2776	512.988	3.04948
213.6000	-48.2995	515.598	3.06703
213.5000	-48.1187	518.266	3.0849
213.4000	-47.3587	520.972	3.10294
213.3000	-47.2533	523.023	3.11655
213.2000	-47.0158	525.824	3.13508
213.1000	-46.0006	528.685	3.15392
213.0000	-45.2197	531.589	3.17296
212.9000	-45.2585	534.577	3.19244
212.8000	-44.9378	538.362	3.217
212.7000	-45.104	541.448	3.23692
212.6000	-45.6194	543.798	3.25202
212.5000	-45.5773	546.995	3.27247
212.4000	-45.3355	550.262	3.29327
212.3000	-45.8479	553.558	3.31415
212.2000	-46.8946	556.925	3.33536
212.1000	-46.6898	560.354	3.35686
212.0000	-45.78	562.944	3.37303
211.9000	-45.8284	566.465	3.39489
211.8000	-45.1928	570.939	3.42252
211.7000	-44.3152	574.631	3.44518
211.6000	-44.1784	578.385	3.4681
211.5000	-44.098	582.211	3.49131
211.4000	-43.3418	586.133	3.51499
211.3000	-42.9406	590.121	3.53892
211.2000	-42.8063	595.231	3.56939
211.1000	-42.4752	599.414	3.59416
211.0000	-42.3584	603.688	3.61932
210.9000	-42.3115	606.952	3.63843
210.8000	-42.8901	611.349	3.66404
210.7000	-42.3295	615.855	3.69012
210.6000	-42.3125	620.448	3.71655
210.5000	-41.0993	625.125	3.74328
210.4000	-40.1818	629.94	3.77062
210.3000	-39.7798	633.612	3.79135
210.2000	-38.9719	638.585	3.81927
210.1000	-39.3148	643.668	3.84761
210.0000	-38.3868	648.856	3.87635
209.9000	-38.5472	654.181	3.90564
209.8000	-37.5209	659.586	3.93516
209.7000	-37.4568	665.132	3.96524
209.6000	-37.4032	672.214	4.00333
209.5000	-37.1579	678.008	4.03425
209.4000	-36.6547	683.957	4.06576
209.3000	-34.0065	691.5	4.10538
209.2000	-33.748	697.709	4.13771
209.1000	-32.4577	704.062	4.17054
209.0000	-31.1104	710.544	4.20378
208.9000	-29.9757	717.167	4.23748
208.8000	-28.8794	723.91	4.27151
208.7000	-28.0555	730.798	4.306
208.6000	-27.605	737.791	4.34073
208.5000	-26.6791	744.958	4.37603
208.4000	-26.2036	752.229	4.41155
208.3000	-24.221	759.641	4.44746
208.2000	-24.5431	765.302	4.47468
208.1000	-23.2944	772.942	4.51115
208.0000	-22.4881	782.659	4.55709
207.9000	-22.0304	788.635	4.5851
207.8000	-21.1922	796.723	4.62272
207.7000	-21.5079	805.016	4.66096
207.6000	-22.1403	813.463	4.69956
207.5000	-21.8041	822.037	4.7384
207.4000	-22.1973	830.813	4.77779
207.3000	-19.1008	839.776	4.81765
207.2000	-17.271	848.939	4.85803
207.1000	-15.3251	858.239	4.89863
207.0000	-15.799	867.657	4.93936
206.9000	-12.241	877.23	4.98037
206.8000	-10.7395	886.887	5.02136
206.7000	-10.5351	896.662	5.06246
206.6000	-11.3473	908.979	5.1137
206.5000	-10.5486	918.891	5.15451
206.4000	-9.552	928.892	5.1953
206.3000	-11.298	938.919	5.23582
206.2000	-8.3796	949.017	5.27625
206.1000	-8.75289	961.629	5.32623
206.0000	-8.75518	971.782	5.36606
205.9000	-5.58117	981.958	5.40562
205.8000	-3.678	992.091	5.44466
205.7000	-5.41427	1002.28	5.48356
205.6000	-5.95058	1012.36	5.52174
205.5000	-3.87337	1022.42	5.5595
205.4000	-5.11498	1032.39	5.59663
205.3000	-3.49881	1042.23	5.63296
205.2000	-2.63971	1051.93	5.66847
205.1000	0.00417616	1059.07	5.69445
205.0000	0.615974	1068.38	5.72805
204.9000	1.46053	1079.44	5.76768
204.8000	2.536	1087.06	5.79481
204.7000	3.43067	1092.05	5.81245
204.6000	3.90845	1097.66	5.83224
204.5000	3.46443	1102.21	5.84819
204.4000	1.46472	1106.36	5.86269
204.3000	0.322121	1108.5	5.87016
204.2000	0.830673	1109.68	5.87427
204.1000	1.09861	1109.95	5.87523
204.0000	1.01503	1110.04	5.87555
203.9000	-0.0931618	1110.09	5.87571
203.8000	-1.25463	1110.11	5.87579
203.7000	0.304268	1110.12	5.87583
203.6000	3.40258	1110.15	5.87593
203.5000	1.50274	1110.19	5.87607
203.4000	1.66812	1110.21	5.87612
203.3000	0.245678	1110.22	5.87616
203.2000	0.891902	1110.23	5.87618
203.1000	1.67469	1110.25	5.87626
203.0000	2.81717	1110.27	5.87632
202.9000	2.39244	1110.28	5.87636
202.8000	1.47762	1110.27	5.87633
202.7000	2.36794	1110.27	5.87634
202.6000	2.31208	1110.28	5.87638
202.5000	5.07256	1110.29	5.87641
202.4000	4.35448	1110.29	5.87642
202.3000	4.1586	1110.3	5.87643
202.2000	4.58172	1110.3	5.87644
202.1000	1.80138	1110.32	5.8765
202.0000	4.37253	1110.32	5.87652
201.9000	3.63781	1110.32	5.87653
201.8000	2.34814	1110.32	5.87651
201.7000	0.88547	1110.32	5.87651
201.6000	1.34342	1110.33	5.87656
201.5000	0.606208	1110.33	5.87656
201.4000	-0.502904	1110.33	5.87655
201.3000	-0.764966	1110.32	5.87653
201.2000	-1.82307	1110.32	5.87653
201.1000	-3.51362	1110.32	5.87652
201.0000	-4.06004	1110.33	5.87656
200.9000	-3.6747	1110.32	5.87651
200.8000	-2.53544	1110.32	5.8765
200.7000	-1.16215	1110.31	5.87648
200.6000	0.640545	1110.31	5.87646
200.5000	0.624472	1110.31	5.87647
200.4000	1.10868	1110.31	5.87648
200.3000	2.81162	1110.32	5.87652
200.2000	2.80181	1110.32	5.8765
200.1000	2.28521	1110.32	5.87651
200.0000	2.29032	1110.33	5.87655
199.9000	1.69627	1110.33	5.87653
199.8000	3.16095	1110.32	5.87652
199.7000	3.33512	1110.31	5.87647
199.6000	3.27789	1110.3	5.87645
199.5000	3.07292	1110.29	5.87642
199.4000	5.88977	1110.28	5.87637
199.3000	5.31456	1110.27	5.87635
199.2000	5.97514	1110.26	5.87632
199.1000	5.72817	1110.26	5.87632
199.0000	5.97705	1110.27	5.87632
198.9000	3.93669	1110.26	5.87629
198.8000	4.83335	1110.25	5.87626
198.7000	4.55921	1110.25	5.87628
198.6000	5.38632	1110.25	5.87627
198.5000	5.29022	1110.25	5.87628
198.4000	4.35514	1110.24	5.87624
198.3000	3.83474	1110.24	5.87623
198.2000	2.78364	1110.24	5.87625
198.1000	1.99534	1110.25	5.87626
198.0000	2.81607	1110.24	5.87622
197.9000	1.20337	1110.22	5.87617
197.8000	0.762279	1110.22	5.87615
197.7000	1.57558	1110.21	5.87613
197.6000	4.13647	1110.21	5.87614
197.5000	3.91063	1110.2	5.87609
197.4000	4.30223	1110.2	5.87609
197.3000	2.38468	1110.19	5.87607
197.2000	2.91846	1110.2	5.87609
197.1000	3.65554	1110.19	5.87608
197.0000	4.43202	1110.2	5.87609
196.9000	2.37282	1110.19	5.87608
196.8000	0.237858	1110.18	5.87603
196.7000	-0.513069	1110.18	5.87604
196.6000	-0.309993	1110.18	5.87601
196.5000	-1.93122	1110.15	5.87593
196.4000	-0.421726	1110.14	5.8759
196.3000	-1.92812	1110.15	5.87591
196.2000	-1.2182	1110.14	5.87587
196.1000	1.74041	1110.12	5.87581
196.0000	2.33911	1110.1	5.87576
195.9000	1.66488	1110.1	5.87574
195.8000	3.12856	1110.09	5.87572
195.7000	2.89482	1110.1	5.87574
195.6000	2.9392	1110.08	5.87567
195.5000	3.074	1110.07	5.87564
195.4000	3.45263	1110.07	5.87565
195.3000	4.01158	1110.08	5.87567
195.2000	5.81722	1110.07	5.87563
195.1000	4.34434	1110.06	5.87562
195.0000	1.96553	1110.07	5.87563
194.9000	1.96182	1110.05	5.87556
194.8000	-1.45031	1110.05	5.87558
194.7000	0.529884	1110.04	5.87554
194.6000	0.196093	1110.02	5.87546
194.5000	-0.032031	1110.03	5.8755
194.4000	0.786075	1110.02	5.87548
194.3000	1.94173	1110.02	5.87546
194.2000	5.5027	1110.02	5.87548
194.1000	5.47465	1110.03	5.8755
194.0000	4.2129	1110.03	5.87551
193.9000	4.28073	1110.04	5.87552
193.8000	2.07598	1110	5.87541
193.7000	1.98105	1110.01	5.87545
193.6000	0.981875	1109.97	5.87528
193.5000	-1.64404	1109.95	5.87521
193.4000	-0.0498001	1109.93	5.87516
193.3000	0.747773	1109.93	5.87515
193.2000	2.23319	1109.93	5.87514
193.1000	1.96182	1109.94	5.87519
193.0000	1.45145	1109.92	5.87514
192.9000	1.62455	1109.97	5.8753
192.8000	1.54051	1109.98	5.87534
192.7000	1.30185	1109.98	5.87533
192.6000	-0.303324	1109.98	5.87532
192.5000	-0.265862	1109.99	5.87536
192.4000	0.872498	1109.99	5.87536
192.3000	0.188648	1109.97	5.87528
192.2000	-0.52846	1109.96	5.87525
192.1000	0.796366	1109.96	5.87528
192.0000	0.934	1109.97	5.87531
191.9000	1.51158	1109.97	5.87531
191.8000	1.24699	1109.98	5.87532
191.7000	2.77346	1109.98	5.87535
191.6000	3.67501	1109.99	5.87535
191.5000	4.8565	1109.98	5.87532
191.4000	6.14383	1109.97	5.87529
191.3000	8.30392	1109.96	5.87527
191.2000	7.76639	1109.96	5.87526
191.1000	5.63122	1109.96	5.87524
191.0000	3.70315	1109.95	5.87523
190.9000	3.2208	1109.94	5.8752
190.8000	0.623923	1109.95	5.87522
190.7000	0.846304	1109.93	5.87515
190.6000	-0.246775	1109.9	5.87506
190.5000	0.430028	1109.89	5.87503
190.4000	0.294356	1109.89	5.87503
190.3000	3.58704	1109.88	5.87498
190.2000	5.04196	1109.89	5.87503
190.1000	6.26477	1109.88	5.87497
190.0000	4.99489	1109.87	5.87493

##### Extended Information
[Comments]
Sample name	WF_OEP24A_DPC_0,1_16,8uM_frac2_180522
Comment
User
Division
Company	TUM

[Detailed Information]
Creation date	18/05/2022 15:31

Data array type	Linear data array * 3
Horizontal axis	Wavelength [nm]
Vertical axis(1)	CD [mdeg]
Vertical axis(2)	HT [V]
Vertical axis(3)	Abs
Start	260 nm
End	190 nm
Data interval	0.1 nm
Data points	701     

[Measurement Information]
Instrument name	J-1500
Model name	J-1500
Serial No.	D066761638

Detector	PM-539
Detector S/N	D066761638
  Lock-in amp.	X mode
  HT volt	Auto

Accessory	PTC-517
Accessory S/N	C036561646
  Temperature	20.01 C
  Control sensor	Holder
  Monitor sensor	Holder
  Start Mode	Keep target temperature +/-0.10 deg C while 5 seconds

Measurement date	18/05/2022 13:41

CD Overload detect	478
Photometric mode	CD, HT, Abs
Measure range	260 - 190 nm
Data pitch	0.1 nm
CD scale	200 mdeg/0.1 dOD
FL scale	200 mdeg/0.1 dOD
D.I.T.	1 sec
Bandwidth	1.00 nm
Start mode	Immediately
Scanning mode	Continuous
Scanning speed	50 nm/min
Baseline correction	None
Shutter control	Auto
Accumulations	5
N2 Flowmeter	Manual with sensor

Concentration	18.1 umol/L
Solvent	20mM HEPES pH7_50mM NaCl_ 0,5mM EDTA_ 5mM DTT _ 0,1percent DPC

