TITLE	WF_dH5_flowthrough_heatstability_21042022
DATA TYPE	
ORIGIN	JASCO
OWNER	
DATE	22/04/21
TIME	20:50:29
SPECTROMETER/DATA SYSTEM	
LOCALE	8192
XUNITS	Temperature[C]
YUNITS	CD [mdeg]
Y2UNITS	HT [V]
FIRSTX	   20.0000
LASTX	  100.0300
NPOINTS	     161
XYDATA
20.0000	-86.5648	262.86
20.4400	-86.4533	262.853
20.9600	-86.0177	262.845
21.5500	-85.8796	262.882
22.0400	-85.5583	262.861
22.5400	-85.3569	262.86
23.0200	-85.0868	262.86
23.5400	-84.9301	262.865
24.0500	-84.583	262.909
24.5500	-84.339	262.9
25.0500	-84.1796	262.836
25.5400	-84.09	262.929
26.0400	-83.608	262.932
26.5500	-83.5541	262.955
27.0400	-83.1597	262.944
27.5300	-83.0302	262.982
28.0300	-82.913	262.98
28.5200	-82.6067	262.972
29.0300	-82.289	262.952
29.5500	-82.068	263.006
30.0300	-81.8064	263.011
30.5300	-81.5327	263.01
31.0300	-81.4759	263.03
31.5300	-80.9745	263.056
32.0400	-80.8228	263.082
32.5400	-80.565	263.084
33.0400	-80.3812	263.086
33.5600	-80.0739	263.035
34.0500	-79.7595	263.08
34.5500	-79.2967	263.072
35.0300	-79.0722	263.128
35.5400	-78.639	263.06
36.0500	-78.3249	263.088
36.5200	-77.6959	263.058
37.0300	-77.3171	263.041
37.5400	-76.8333	263.086
38.0100	-76.4953	263.105
38.5200	-76.1343	263.102
39.0200	-75.7904	263.156
39.5200	-75.2994	263.108
40.0300	-74.8966	263.207
40.5300	-74.5026	263.169
41.0300	-74.1077	263.204
41.5400	-73.5829	263.239
42.0300	-73.1875	263.214
42.5100	-72.4885	263.185
43.0500	-71.7268	263.114
43.5600	-71.1254	263.151
44.0300	-70.7377	263.172
44.5300	-70.2782	263.145
45.0300	-69.5396	263.156
45.5400	-68.815	263.178
46.0200	-68.2396	263.221
46.5200	-67.6914	263.214
47.0500	-66.7618	263.141
47.5500	-66.0665	263.163
48.0300	-65.3806	263.164
48.5300	-64.5343	263.176
49.0500	-63.6766	263.148
49.5400	-63.0397	263.195
50.0200	-62.1704	263.173
50.5400	-61.4256	263.198
51.0300	-60.3643	263.18
51.5300	-59.4956	263.193
52.0200	-58.4613	263.174
52.5300	-57.6402	263.192
53.0200	-56.582	263.228
53.5300	-55.7599	263.215
54.0300	-54.5986	263.195
54.5500	-53.3736	263.217
55.0400	-52.4628	263.241
55.5500	-51.3156	263.263
56.0400	-50.0295	263.226
56.5500	-48.982	263.246
57.0400	-47.7216	263.313
57.5200	-46.5164	263.308
58.0200	-45.3872	263.299
58.5200	-44.1182	263.338
59.0400	-43.0007	263.343
59.5300	-41.7751	263.362
60.0200	-40.6841	263.361
60.5500	-39.4444	263.381
61.0300	-38.8152	263.378
61.5300	-37.5257	263.424
62.0200	-36.6378	263.455
62.5300	-35.711	263.496
63.0500	-35.0801	263.526
63.5500	-34.2162	263.6
64.0200	-33.4951	263.558
64.5300	-32.8949	263.546
65.0300	-32.3681	263.605
65.5200	-31.5986	263.625
66.0400	-31.1514	263.61
66.5600	-30.4873	263.68
67.0200	-30.0206	263.743
67.5200	-29.5847	263.734
68.0400	-29.2417	263.913
68.5500	-28.8217	263.895
69.0300	-28.632	263.961
69.5300	-28.1306	264.025
70.0500	-27.6985	263.962
70.5600	-27.2817	263.975
71.0200	-26.9533	264.058
71.5400	-26.531	264.018
72.0300	-26.3717	264.052
72.5300	-25.9996	264.097
73.0400	-25.431	264.096
73.5400	-25.2244	264.123
74.0200	-25.0594	264.131
74.5300	-24.5777	264.144
75.0500	-24.2958	264.162
75.5300	-24.0309	264.236
76.0300	-23.6662	264.192
76.5400	-23.5049	264.207
77.0200	-23.5453	264.357
77.5400	-22.9405	264.244
78.0500	-23.3763	264.576
78.5400	-22.7444	264.693
79.0300	-22.6184	264.69
79.5300	-22.4501	264.68
80.0300	-22.3268	264.763
80.5300	-22.1006	264.697
81.0200	-21.9609	264.727
81.5400	-21.6767	264.728
82.0400	-21.5332	264.799
82.5400	-21.0523	264.747
83.0300	-21.0858	264.816
83.5400	-20.7852	264.804
84.0300	-20.6873	264.838
84.5300	-20.6959	264.819
85.0400	-20.5354	264.891
85.5300	-20.5818	264.82
86.0400	-20.1994	264.889
86.5200	-20.1231	264.892
87.0500	-19.8571	264.901
87.5300	-19.6935	264.874
88.0100	-19.8847	265.193
88.5300	-19.7257	265.401
89.0300	-19.5793	265.471
89.5300	-19.3337	265.291
90.0000	-19.3206	265.486
90.5400	-19.3237	265.468
91.0100	-19.332	265.488
91.5300	-19.0905	265.491
92.0500	-19.0452	265.539
92.5200	-18.7544	265.527
93.0400	-18.8362	265.558
93.5400	-18.8456	265.777
94.0300	-18.7934	266.091
94.5200	-18.7693	266.139
95.0200	-18.6877	266.065
95.5400	-18.5139	266.128
96.0400	-18.6117	266.132
96.5200	-18.1989	266.193
97.0600	-18.2918	266.147
97.5400	-18.2488	266.19
98.0200	-18.2848	266.734
98.5400	-18.2379	266.859
99.0400	-18.3212	266.756
99.5300	-18.0164	266.815
100.0300	-18.1596	266.847

##### Extended Information
[Comments]
Sample name	WF_dH5_flowthrough_heatstability_21042022
Comment
User
Division
Company	TUM

[Detailed Information]
Creation date	21/04/2022 19:50

Data array type	Non-linear data array * 2
Horizontal axis	Temperature [C]
Vertical axis(1)	CD [mdeg]
Vertical axis(2)	HT [V]
Start	20 C
End	100.03 C
Data points	161     

[Measurement Information]
Instrument name	J-1500
Model name	J-1500
Serial No.	D066761638

Detector	PM-539
Detector S/N	D066761638
  Lock-in amp.	X mode
  HT volt	Auto

Accessory	PTC-517
Accessory S/N	C036561646
  Control sensor	Holder
  Monitor sensor	Holder
  Start Mode	Keep target temperature +/-0.10 deg C while 5 seconds

Measurement date	21/04/2022 19:48

Photometric mode	CD, HT
CD scale	200 mdeg/0.1 dOD
FL scale	200 mdeg/0.1 dOD
D.I.T.	2 sec
Bandwidth	5.00 nm
Monitor wavelength	221.2 nm
Baseline correction	None
Shutter control	Auto
No. of cycle	1

Concentration	19 umol/L
Solvent	Buffer: 20mM Tris pH7.5, 100mM NaCl, 0.5mM EDTA

Start Temperature	20 C
Stage-1	Target 100 C, Interval 0.5 C, Ramp rate 1 C/min, Wait 0 sec
Temp. ramp mode	Halt, wait 0 sec before acquiring data

